Data from Absorbance__3__13-12-52-525.txt Node

Date: Sat Aug 24 13:12:52 CDT 2024
User: jcb200005
Spectrometer: USB4H00496
Trigger mode: 4
Integration Time (sec): 5.700000E-2
Scans to average: 25
Electric dark correction enabled: true
Nonlinearity correction enabled: false
Boxcar width: 0
XAxis mode: Wavelengths
Number of Pixels in Spectrum: 3648
>>>>>Begin Spectral Data<<<<<
177.67838	1.25389
177.89545	1.25389
178.1125	1.25389
178.32955	-0.34391
178.54659	0.40695
178.76362	-0.17596
178.98064	0.68461
179.19766	0.97134
179.41466	-0.25769
179.63165	0.31982
179.84864	-0
180.06561	0.17817
180.28258	-0.3973
180.49954	-1.62809
180.71649	-0.29817
180.93343	-1.8407
181.15036	-0
181.36728	-0.61375
181.5842	-0
181.8011	0.84968
182.01799	0.90557
182.23488	0.65815
182.45176	1.0607
182.66862	0.38946
182.88548	1.27239
183.10233	0.81281
183.31917	-0
183.53601	0.6252
183.75283	-0
183.96964	1.14995
184.18645	0.79262
184.40324	0.88833
184.62003	-0
184.83681	-0
185.05357	0.86856
185.27033	0.48348
185.48708	-0
185.70382	2.31035
185.92056	-0
186.13728	0.52529
186.35399	0.61915
186.5707	0.68283
186.78739	-0
187.00408	0.6503
187.22076	0.33273
187.43742	-0
187.65408	-0
187.87073	0.48379
188.08737	-0
188.30401	-0
188.52063	-0
188.73724	0.97152
188.95385	0.83281
189.17044	0.67716
189.38703	-0
189.6036	1.45602
189.82017	2.21402
190.03673	1.13635
190.25328	-0
190.46982	1.67851
190.68635	1.09099
190.90287	0.7951
191.11939	-0
191.33589	0.65893
191.55239	1.99532
191.76887	-0
191.98535	-0
192.20182	2.06618
192.41827	-0
192.63472	1.37229
192.85116	0.85474
193.06759	-0
193.28401	-0
193.50043	1.21935
193.71683	-0
193.93322	-0
194.14961	1.33357
194.36598	0.97541
194.58235	-0
194.79871	-0
195.01506	-0
195.23139	-0
195.44772	1.42112
195.66404	-0
195.88036	-0
196.09666	1.1112
196.31295	-0
196.52923	-0
196.74551	1.06318
196.96177	0.86627
197.17803	-0
197.39428	1.22293
197.61051	1.19954
197.82674	1.51693
198.04296	1.45518
198.25917	0.78891
198.47537	1.04875
198.69156	1.34952
198.90775	-0
199.12392	1.55499
199.34008	1.37114
199.55624	1.32687
199.77238	-0
199.98852	1.23751
200.20465	1.24643
200.42076	-0
200.63687	1.60665
200.85297	-0
201.06906	1.57444
201.28514	1.73054
201.50121	-0
201.71727	1.81959
201.93333	-0
202.14937	-0
202.3654	1.70838
202.58143	1.27924
202.79744	1.87854
203.01345	1.29381
203.22945	-0
203.44544	2.31685
203.66141	1.85005
203.87738	2.17063
204.09334	1.36833
204.30929	2.62911
204.52523	1.45168
204.74117	2.20813
204.95709	1.43911
205.173	1.61086
205.38891	-0
205.6048	2.22941
205.82069	2.28827
206.03656	-0
206.25243	-0
206.46829	2.17742
206.68413	1.9941
206.89997	-0
207.1158	2.58862
207.33162	-0
207.54743	-0
207.76324	2.01816
207.97903	-0
208.19481	1.50228
208.41058	-0
208.62635	2.69731
208.8421	2.88627
209.05785	2.39994
209.27358	1.7432
209.48931	2.38366
209.70503	2.15802
209.92074	1.76281
210.13643	-0
210.35212	-0
210.5678	2.00838
210.78347	1.88965
210.99914	2.09434
211.21479	2.01672
211.43043	1.90309
211.64606	-0
211.86169	2.16508
212.0773	2.42947
212.29291	-0
212.5085	2.02016
212.72409	2.06668
212.93966	1.7888
213.15523	2.39164
213.37079	-0
213.58634	-0
213.80188	2.48104
214.01741	1.73618
214.23293	1.74952
214.44844	2.60493
214.66394	2.25487
214.87943	2.72759
215.09491	1.83875
215.31039	1.56402
215.52585	-0
215.7413	2.24605
215.95675	2.28774
216.17218	-0
216.38761	2.88143
216.60303	1.99624
216.81843	2.59125
217.03383	2.5506
217.24922	2.4212
217.4646	2.27326
217.67997	2.26369
217.89533	2.37729
218.11068	-0
218.32602	1.97663
218.54135	2.85632
218.75667	2.10127
218.97198	2.6505
219.18729	2.24563
219.40258	1.78097
219.61787	-0
219.83314	2.26897
220.04841	2.3505
220.26366	2.45204
220.47891	2.0061
220.69414	-0
220.90937	2.85147
221.12459	2.06003
221.3398	2.83082
221.555	2.029
221.77019	-0
221.98536	-0
222.20054	-0
222.4157	-0
222.63085	2.24224
222.84599	2.29093
223.06112	2.7774
223.27624	-0
223.49136	2.31485
223.70646	1.88415
223.92155	2.37518
224.13664	2.91147
224.35171	2.73466
224.56678	3.18481
224.78184	3.1292
224.99688	2.18582
225.21192	2.1253
225.42695	2.61367
225.64196	2.69661
225.85697	2.4694
226.07197	-0
226.28696	3.09917
226.50194	-0
226.71691	2.55349
226.93187	3.37409
227.14682	2.36436
227.36176	3.0594
227.5767	-0
227.79162	-0
228.00653	2.27865
228.22143	2.21411
228.43633	2.58932
228.65121	3.00111
228.86609	2.7102
229.08095	2.81436
229.29581	2.2898
229.51065	2.33711
229.72549	3.56233
229.94031	2.55958
230.15513	2.2838
230.36994	2.50844
230.58474	2.97871
230.79952	2.72104
231.0143	2.7632
231.22907	2.98256
231.44383	3.09539
231.65858	3.27216
231.87332	2.7009
232.08805	3.17526
232.30277	2.86953
232.51748	2.92463
232.73218	2.96246
232.94688	-0
233.16156	2.66171
233.37623	3.2112
233.59089	-0
233.80555	3.38369
234.02019	3.8098
234.23483	2.62184
234.44945	3.42218
234.66406	2.44082
234.87867	-0
235.09327	2.71472
235.30785	-0
235.52243	2.78318
235.73699	2.71911
235.95155	-0
236.1661	2.88545
236.38064	2.80316
236.59516	2.48688
236.80968	2.46597
237.02419	2.47392
237.23869	2.87895
237.45318	3.60243
237.66766	2.4349
237.88213	-0
238.09659	-0
238.31104	-0
238.52548	5.59047
238.73991	2.75499
238.95433	2.61426
239.16874	-0
239.38314	-0
239.59754	-0
239.81192	3.49782
240.02629	2.5335
240.24066	2.70929
240.45501	2.65705
240.66935	-0
240.88369	2.39058
241.09801	2.76606
241.31232	3.05905
241.52663	2.38399
241.74092	-0
241.95521	4.00179
242.16949	2.37294
242.38375	-0
242.59801	2.99969
242.81225	2.73634
243.02649	-0
243.24072	-0
243.45493	3.24178
243.66914	-0
243.88334	-0
244.09753	2.48613
244.31171	-0
244.52587	2.97534
244.74003	-0
244.95418	2.76499
245.16832	2.69261
245.38245	2.75794
245.59657	3.12681
245.81068	-0
246.02478	-0
246.23887	-0
246.45295	-0
246.66702	3.22794
246.88108	4.42824
247.09513	2.66801
247.30917	3.06795
247.5232	3.1515
247.73722	-0
247.95124	2.99373
248.16524	-0
248.37923	2.7253
248.59321	2.72931
248.80719	2.63242
249.02115	3.02101
249.2351	3.04225
249.44904	2.8754
249.66298	2.86207
249.8769	2.61824
250.09081	3.08139
250.30472	3.09612
250.51861	-0
250.7325	-0
250.94637	3.49109
251.16024	3.71998
251.37409	2.87225
251.58793	2.82531
251.80177	3.27786
252.01559	-0
252.22941	2.69971
252.44322	2.89965
252.65701	-0
252.8708	-0
253.08457	-0
253.29834	-0
253.51209	2.8871
253.72584	2.9002
253.93958	3.45145
254.1533	-0
254.36702	-0
254.58073	-0
254.79442	3.86109
255.00811	3.67456
255.22179	3.1737
255.43545	2.88555
255.64911	-0
255.86276	3.36352
256.0764	2.75763
256.29002	-0
256.50364	2.78792
256.71725	3.10017
256.93085	2.83362
257.14443	-0
257.35801	3.18907
257.57158	2.827
257.78514	2.75884
257.99869	3.85124
258.21223	2.82192
258.42575	3.6249
258.63927	2.80816
258.85278	2.71692
259.06628	-0
259.27977	-0
259.49325	4.54597
259.70672	3.25258
259.92017	2.98671
260.13362	3.86302
260.34706	2.76883
260.56049	3.5893
260.77391	3.7088
260.98732	-0
261.20072	2.91257
261.41411	2.85592
261.62749	-0
261.84086	-0
262.05422	3.19546
262.26757	2.88265
262.4809	-0
262.69423	3.36188
262.90755	-0
263.12086	2.65708
263.33416	3.35689
263.54745	3.94429
263.76073	3.28734
263.974	3.64682
264.18726	2.86356
264.40051	2.84471
264.61375	2.88465
264.82698	3.27142
265.0402	-0
265.25341	2.94018
265.46661	-0
265.6798	2.96834
265.89298	2.82087
266.10615	-0
266.31931	2.9998
266.53245	3.92499
266.74559	2.99552
266.95872	-0
267.17184	3.41309
267.38495	-0
267.59805	2.83749
267.81114	2.62784
268.02422	2.65404
268.23729	2.99222
268.45035	-0
268.6634	-0
268.87644	3.21328
269.08947	2.78795
269.30248	-0
269.51549	-0
269.72849	2.84564
269.94148	-0
270.15446	-0
270.36743	-0
270.58039	3.07782
270.79334	2.80046
271.00627	3.42414
271.2192	3.18363
271.43212	-0
271.64503	-0
271.85793	-0
272.07081	2.93794
272.28369	-0
272.49656	-0
272.70942	-0
272.92227	2.7722
273.1351	-0
273.34793	-0
273.56075	2.83519
273.77356	4.48484
273.98635	2.51483
274.19914	-0
274.41192	-0
274.62468	-0
274.83744	3.54919
275.05019	-0
275.26292	2.68452
275.47565	-0
275.68837	2.81359
275.90107	3.49
276.11377	2.65616
276.32645	-0
276.53913	-0
276.7518	3.6005
276.96445	-0
277.1771	4.0315
277.38973	-0
277.60236	3.76804
277.81497	2.89968
278.02758	3.0958
278.24017	-0
278.45276	3.40137
278.66533	2.71825
278.87789	3.28551
279.09045	-0
279.30299	-0
279.51552	3.28715
279.72805	-0
279.94056	-0
280.15306	3.077
280.36556	5.05726
280.57804	3.04531
280.79051	-0
281.00297	2.81923
281.21543	2.94996
281.42787	3.48541
281.6403	-0
281.85272	3.06989
282.06513	2.77623
282.27753	3.41529
282.48992	2.78698
282.70231	3.81948
282.91468	2.88672
283.12704	3.56816
283.33939	-0
283.55173	-0
283.76406	3.97567
283.97638	-0
284.18868	3.40626
284.40098	2.64231
284.61327	2.52835
284.82555	2.94415
285.03782	3.61427
285.25008	3.18705
285.46232	-0
285.67456	3.04326
285.88679	3.47188
286.09901	-0
286.31121	2.9805
286.52341	2.87458
286.7356	3.05204
286.94777	-0
287.15994	2.96434
287.37209	4.6333
287.58424	-0
287.79637	2.8776
288.0085	-0
288.22061	3.09866
288.43272	3.54544
288.64481	-0
288.85689	-0
289.06897	2.93266
289.28103	-0
289.49308	2.98897
289.70512	-0
289.91716	3.12002
290.12918	3.0316
290.34119	2.89959
290.55319	-0
290.76518	4.80551
290.97716	2.66769
291.18913	-0
291.40109	-0
291.61304	2.86236
291.82498	-0
292.03691	2.88111
292.24883	-0
292.46074	2.79223
292.67264	-0
292.88452	3.82131
293.0964	-0
293.30827	-0
293.52013	-0
293.73197	2.75799
293.94381	-0
294.15563	-0
294.36745	-0
294.57925	2.96739
294.79105	3.26323
295.00283	2.96693
295.21461	-0
295.42637	-0
295.63812	-0
295.84987	3.41762
296.0616	3.55524
296.27332	-0
296.48503	-0
296.69673	3.91199
296.90843	3.45773
297.12011	3.39105
297.33178	3.44508
297.54344	-0
297.75509	2.92529
297.96672	2.94416
298.17835	-0
298.38997	5.92516
298.60158	3.12086
298.81318	-0
299.02476	3.04984
299.23634	3.82483
299.44791	2.86206
299.65946	3.7171
299.87101	2.73093
300.08254	-0
300.29407	-0
300.50558	4.65155
300.71709	-0
300.92858	3.04073
301.14006	3.28363
301.35154	3.10823
301.563	2.88401
301.77445	-0
301.98589	-0
302.19732	3.16739
302.40874	4.14646
302.62015	2.89904
302.83155	3.31837
303.04294	3.38843
303.25432	3.34002
303.46569	3.97278
303.67704	-0
303.88839	3.04182
304.09973	2.92756
304.31106	-0
304.52237	3.01402
304.73368	2.9938
304.94497	4.19278
305.15626	3.43162
305.36753	-0
305.57879	3.28852
305.79005	3.60148
306.00129	3.44549
306.21252	-0
306.42374	3.25884
306.63495	-0
306.84615	2.76969
307.05734	3.67981
307.26852	-0
307.47969	-0
307.69085	3.30378
307.902	2.9385
308.11314	-0
308.32426	3.68547
308.53538	-0
308.74649	2.7908
308.95758	-0
309.16867	-0
309.37974	-0
309.59081	3.77888
309.80186	3.25221
310.0129	3.20018
310.22393	3.13571
310.43496	3.61519
310.64597	2.60215
310.85697	3.6513
311.06796	3.00167
311.27894	3.49016
311.48991	-0
311.70086	3.72413
311.91181	-0
312.12275	-0
312.33368	2.82751
312.54459	3.81765
312.7555	2.91208
312.96639	3.10653
313.17728	3.46733
313.38815	-0
313.59902	-0
313.80987	3.49126
314.02071	2.87906
314.23154	-0
314.44236	2.91024
314.65318	3.29021
314.86398	3.97854
315.07476	2.90214
315.28554	3.12062
315.49631	3.22839
315.70707	3.03142
315.91782	-0
316.12855	3.49607
316.33928	3.57391
316.54999	-0
316.7607	-0
316.97139	3.48395
317.18208	2.74938
317.39275	2.87167
317.60341	3.10832
317.81406	5.93558
318.0247	3.09508
318.23533	2.92052
318.44595	-0
318.65656	-0
318.86716	2.96308
319.07775	3.57959
319.28833	2.68058
319.49889	3.32309
319.70945	-0
319.91999	3.34923
320.13053	2.81166
320.34105	3.75387
320.55156	2.74808
320.76207	3.12057
320.97256	-0
321.18304	-0
321.39351	2.6888
321.60397	2.9822
321.81442	3.48148
322.02486	3.88864
322.23529	3.0247
322.4457	-0
322.65611	2.64718
322.86651	2.83576
323.07689	3.22412
323.28726	-0
323.49763	3.60665
323.70798	-0
323.91832	-0
324.12866	3.06531
324.33898	-0
324.54929	-0
324.75959	3.35689
324.96988	2.85615
325.18015	-0
325.39042	2.73801
325.60068	3.89924
325.81092	3.3191
326.02116	3.37385
326.23138	-0
326.4416	-0
326.6518	3.19231
326.86199	-0
327.07217	2.88328
327.28235	4.43145
327.49251	3.96115
327.70265	2.96882
327.91279	3.85681
328.12292	-0
328.33304	3.31992
328.54315	3.88496
328.75324	2.86103
328.96333	3.32663
329.1734	2.96342
329.38346	-0
329.59352	2.89824
329.80356	2.70668
330.01359	-0
330.22361	3.12958
330.43362	3.26025
330.64362	2.81587
330.85361	-0
331.06358	2.70905
331.27355	-0
331.48351	-0
331.69345	3.61071
331.90338	3.21871
332.11331	2.77409
332.32322	3.49208
332.53312	-0
332.74301	-0
332.95289	2.55463
333.16276	2.69016
333.37262	2.87618
333.58247	-0
333.79231	-0
334.00213	3.04496
334.21195	2.79935
334.42175	2.59264
334.63155	4.17574
334.84133	2.92029
335.0511	-0
335.26086	2.72513
335.47061	3.16317
335.68035	3.22537
335.89008	3.08304
336.0998	4.36295
336.3095	2.95767
336.5192	2.71264
336.72889	3.54828
336.93856	3.83628
337.14822	3.29507
337.35788	2.88722
337.56752	2.85005
337.77715	2.82805
337.98677	2.88862
338.19638	-0
338.40598	2.79107
338.61556	-0
338.82514	3.02779
339.03471	-0
339.24426	-0
339.45381	-0
339.66334	2.8357
339.87286	2.72013
340.08237	2.77722
340.29187	3.53761
340.50136	-0
340.71084	-0
340.92031	2.83566
341.12977	2.91249
341.33921	-0
341.54865	-0
341.75807	-0
341.96749	2.94682
342.17689	2.72931
342.38628	2.63581
342.59566	2.74424
342.80503	-0
343.01439	3.08886
343.22374	3.38501
343.43307	3.57501
343.6424	3.42895
343.85171	4.42529
344.06102	2.7177
344.27031	2.69796
344.47959	2.46761
344.68886	-0
344.89813	-0
345.10737	-0
345.31661	3.34402
345.52584	-0
345.73506	2.71362
345.94426	3.81582
346.15346	3.41557
346.36264	4.13469
346.57181	2.861
346.78098	2.90834
346.99013	3.38978
347.19927	-0
347.40839	2.43245
347.61751	-0
347.82662	3.11552
348.03571	2.74256
348.2448	2.82871
348.45387	2.91306
348.66294	2.97326
348.87199	2.63284
349.08103	2.84414
349.29006	2.90889
349.49908	2.54423
349.70809	-0
349.91708	2.87998
350.12607	3.54252
350.33504	-0
350.54401	3.94805
350.75296	-0
350.9619	2.76707
351.17083	2.60517
351.37975	-0
351.58866	2.89104
351.79756	4.68869
352.00645	-0
352.21532	2.99095
352.42419	-0
352.63304	-0
352.84188	-0
353.05071	-0
353.25954	-0
353.46834	2.56343
353.67714	3.21809
353.88593	-0
354.09471	-0
354.30347	2.9748
354.51223	2.67082
354.72097	2.62286
354.9297	2.49308
355.13842	-0
355.34713	-0
355.55583	4.01014
355.76452	2.42983
355.9732	3.3421
356.18186	-0
356.39052	-0
356.59916	2.88114
356.80779	2.93908
357.01641	-0
357.22502	2.9903
357.43362	-0
357.64221	-0
357.85079	2.70422
358.05935	3.1695
358.26791	2.58748
358.47645	2.76198
358.68498	3.09117
358.89351	-0
359.10202	-0
359.31052	2.71085
359.519	2.75647
359.72748	3.68898
359.93595	2.80246
360.1444	2.62382
360.35284	2.7289
360.56128	-0
360.7697	3.25503
360.97811	-0
361.18651	2.61153
361.3949	2.82348
361.60327	3.34647
361.81164	2.56649
362.01999	-0
362.22834	-0
362.43667	-0
362.64499	2.79164
362.8533	2.67074
363.0616	2.96197
363.26988	2.91297
363.47816	-0
363.68643	3.10227
363.89468	2.83169
364.10292	2.66485
364.31115	2.73186
364.51937	3.6625
364.72758	-0
364.93578	2.79047
365.14397	-0
365.35214	3.30593
365.56031	2.71516
365.76846	-0
365.9766	2.9454
366.18474	3.19808
366.39286	-0
366.60096	-0
366.80906	3.32031
367.01715	2.91092
367.22522	-0
367.43329	2.83645
367.64134	-0
367.84938	2.69876
368.05741	2.69824
368.26543	2.62334
368.47344	2.97114
368.68143	-0
368.88942	2.84976
369.09739	2.77563
369.30535	-0
369.51331	-0
369.72125	3.04749
369.92918	3.20887
370.13709	-0
370.345	2.47697
370.55289	3.4471
370.76078	2.94621
370.96865	3.73817
371.17651	3.13553
371.38436	2.56296
371.5922	3.40594
371.80003	-0
372.00785	-0
372.21565	-0
372.42344	3.39384
372.63123	3.9862
372.839	2.69934
373.04676	2.85184
373.25451	2.64949
373.46224	3.1745
373.66997	3.62627
373.87769	2.713
374.08539	-0
374.29308	3.10783
374.50076	3.18567
374.70843	-0
374.91609	3.12776
375.12374	-0
375.33137	3.1247
375.539	-0
375.74661	2.66301
375.95421	-0
376.1618	2.83016
376.36938	-0
376.57695	3.98347
376.78451	2.8074
376.99205	-0
377.19959	2.69676
377.40711	2.81584
377.61462	2.98751
377.82212	-0
378.02961	-0
378.23709	4.4954
378.44455	2.95143
378.65201	-0
378.85945	2.94691
379.06688	2.6138
379.2743	2.55779
379.48171	-0
379.68911	3.07706
379.89649	2.49342
380.10387	3.14542
380.31123	-0
380.51859	3.77861
380.72593	3.49719
380.93326	2.76417
381.14057	3.27087
381.34788	4.49382
381.55518	2.68377
381.76246	-0
381.96973	-0
382.17699	-0
382.38424	-0
382.59148	2.82607
382.79871	2.90147
383.00592	2.71022
383.21313	2.94284
383.42032	2.75614
383.6275	3.02072
383.83467	-0
384.04183	-0
384.24898	-0
384.45611	2.85161
384.66324	-0
384.87035	3.14807
385.07745	-0
385.28454	3.37844
385.49162	-0
385.69869	2.94511
385.90575	2.69091
386.11279	2.89276
386.31982	3.33264
386.52684	-0
386.73385	3.10582
386.94085	-0
387.14784	2.64169
387.35482	2.72012
387.56178	3.26526
387.76873	-0
387.97567	2.98299
388.1826	3.68702
388.38952	3.05927
388.59643	-0
388.80332	-0
389.01021	-0
389.21708	2.51253
389.42394	2.76892
389.63079	2.88715
389.83763	3.28072
390.04446	2.8014
390.25127	3.45909
390.45807	3.52242
390.66487	2.54751
390.87165	3.06827
391.07842	-0
391.28517	2.79606
391.49192	-0
391.69865	2.77872
391.90538	2.73258
392.11209	3.07861
392.31879	2.79116
392.52548	3.28228
392.73215	4.95857
392.93882	4.39572
393.14547	-0
393.35212	-0
393.55875	-0
393.76537	3.34859
393.97197	3.56332
394.17857	2.8982
394.38516	2.48279
394.59173	4.06099
394.79829	2.70341
395.00484	2.53968
395.21138	2.70545
395.41791	2.96271
395.62442	3.23002
395.83093	-0
396.03742	2.47335
396.2439	2.81604
396.45037	-0
396.65683	3.55972
396.86327	2.58401
397.06971	-0
397.27613	-0
397.48254	3.14599
397.68894	2.78738
397.89533	3.41807
398.10171	-0
398.30807	3.18524
398.51442	-0
398.72077	2.72991
398.9271	-0
399.13342	3.57265
399.33972	2.88625
399.54602	-0
399.7523	-0
399.95857	-0
400.16484	-0
400.37108	3.5023
400.57732	2.57779
400.78355	-0
400.98976	-0
401.19597	-0
401.40216	2.33602
401.60834	-0
401.8145	-0
402.02066	3.56956
402.2268	3.27187
402.43294	3.01157
402.63906	3.3718
402.84517	2.88521
403.05127	2.56312
403.25735	3.66709
403.46343	2.90464
403.66949	2.89025
403.87554	2.34331
404.08158	-0
404.28761	-0
404.49363	-0
404.69963	-0
404.90562	-0
405.1116	-0
405.31757	-0
405.52353	2.63774
405.72948	2.86509
405.93541	2.4094
406.14134	2.84692
406.34725	2.34521
406.55315	-0
406.75904	2.87033
406.96491	2.53402
407.17078	-0
407.37663	2.86471
407.58247	-0
407.7883	3.52951
407.99412	3.85148
408.19992	-0
408.40572	-0
408.6115	2.50964
408.81727	2.82241
409.02303	2.62825
409.22878	2.82779
409.43452	-0
409.64024	2.6188
409.84595	2.99257
410.05165	3.05947
410.25734	-0
410.46302	-0
410.66868	-0
410.87434	2.7657
411.07998	2.6604
411.28561	-0
411.49123	2.85652
411.69684	-0
411.90243	-0
412.10801	3.22219
412.31359	3.03646
412.51915	2.78916
412.72469	2.97101
412.93023	-0
413.13575	2.54781
413.34127	2.8646
413.54677	2.94386
413.75226	2.70199
413.95773	3.65217
414.1632	2.87677
414.36865	2.44666
414.5741	2.34832
414.77953	-0
414.98494	-0
415.19035	3.14579
415.39575	3.20547
415.60113	3.18615
415.8065	-0
416.01186	2.88973
416.21721	2.66179
416.42254	2.37248
416.62787	2.62985
416.83318	3.17689
417.03848	3.09245
417.24377	2.56878
417.44905	-0
417.65431	2.37984
417.85956	2.73929
418.06481	2.62131
418.27004	2.80031
418.47525	3.55738
418.68046	-0
418.88565	2.68403
419.09084	2.52773
419.29601	4.11293
419.50116	2.67054
419.70631	2.60659
419.91145	3.19507
420.11657	2.9417
420.32168	2.89112
420.52678	2.84348
420.73187	2.86308
420.93694	3.07968
421.14201	2.85649
421.34706	2.622
421.5521	3.49092
421.75713	-0
421.96214	2.76525
422.16715	-0
422.37214	3.18656
422.57712	2.45538
422.78209	2.96758
422.98705	-0
423.19199	2.94823
423.39692	3.47276
423.60185	2.61831
423.80675	2.98019
424.01165	-0
424.21654	3.17511
424.42141	-0
424.62627	2.43539
424.83112	-0
425.03596	3.28441
425.24079	3.14971
425.4456	2.627
425.6504	2.60578
425.85519	-0
426.05997	2.66314
426.26474	2.51614
426.46949	2.62409
426.67423	2.72622
426.87897	2.40298
427.08368	2.95106
427.28839	3.60964
427.49309	2.63637
427.69777	2.57864
427.90244	2.59371
428.1071	3.36046
428.31175	2.68071
428.51638	2.62276
428.721	2.63219
428.92561	2.41401
429.13021	2.50521
429.3348	3.3994
429.53938	-0
429.74394	2.52433
429.94849	3.05816
430.15303	-0
430.35756	2.89569
430.56207	3.86012
430.76658	-0
430.97107	2.91633
431.17555	2.6171
431.38002	2.82929
431.58447	2.7745
431.78891	2.59672
431.99335	2.74493
432.19777	2.35644
432.40217	3.35613
432.60657	2.49236
432.81095	-0
433.01532	2.99431
433.21968	3.52613
433.42403	2.75815
433.62837	-0
433.83269	3.45574
434.037	3.00719
434.2413	2.41035
434.44559	2.77144
434.64986	2.32473
434.85413	3.06361
435.05838	2.49982
435.26262	2.86269
435.46684	2.33584
435.67106	2.79188
435.87526	2.68866
436.07945	-0
436.28363	2.93691
436.4878	2.26528
436.69196	2.71864
436.8961	2.85151
437.10023	2.8325
437.30435	3.13877
437.50846	2.50769
437.71255	2.66487
437.91663	2.79941
438.1207	2.60459
438.32476	2.99008
438.52881	2.73846
438.73284	2.34643
438.93686	2.58256
439.14088	2.87013
439.34487	2.88557
439.54886	2.59094
439.75283	3.29548
439.95679	2.67693
440.16074	2.60961
440.36468	3.54745
440.56861	2.91691
440.77252	-0
440.97642	2.82217
441.18031	-0
441.38419	-0
441.58805	2.63593
441.79191	2.49915
441.99575	4.22569
442.19958	-0
442.40339	2.54391
442.6072	3.13008
442.81099	2.81459
443.01477	2.55241
443.21854	2.93251
443.42229	2.82958
443.62604	2.8491
443.82977	2.42795
444.03349	2.90607
444.2372	2.90347
444.44089	3.02668
444.64458	2.54281
444.84825	2.62176
445.0519	3.38893
445.25555	-0
445.45919	2.40749
445.66281	2.72664
445.86642	3.4349
446.07002	2.50686
446.2736	2.46726
446.47718	-0
446.68074	2.53664
446.88429	2.4975
447.08782	2.3031
447.29135	2.6788
447.49486	2.84287
447.69836	2.71745
447.90185	2.58947
448.10533	2.67171
448.30879	2.69662
448.51224	2.41449
448.71568	2.41504
448.91911	3.6491
449.12252	3.2803
449.32593	2.70802
449.52932	2.76689
449.7327	2.55982
449.93606	2.30038
450.13942	2.58601
450.34276	2.93275
450.54609	3.30369
450.74941	2.32281
450.95271	2.57179
451.15601	-0
451.35929	-0
451.56255	-0
451.76581	2.6726
451.96906	2.58925
452.17229	2.45168
452.37551	2.56865
452.57871	2.4436
452.78191	2.61793
452.98509	-0
453.18826	3.06042
453.39142	2.65875
453.59457	2.94702
453.7977	2.53547
454.00082	2.85491
454.20393	2.63722
454.40703	2.85215
454.61011	2.4566
454.81319	2.51976
455.01625	2.92108
455.21929	2.70894
455.42233	2.33732
455.62535	2.92887
455.82836	2.65145
456.03136	2.4887
456.23435	2.5645
456.43732	2.6531
456.64029	2.54217
456.84324	2.28556
457.04617	2.34467
457.2491	2.66056
457.45201	2.48089
457.65491	3.6478
457.8578	2.54438
458.06068	2.52621
458.26354	3.44204
458.46639	2.77865
458.66923	2.4753
458.87206	2.34027
459.07487	2.42049
459.27767	2.43253
459.48046	2.7407
459.68324	2.89216
459.886	-0
460.08876	2.41859
460.2915	2.43396
460.49422	2.71213
460.69694	2.65698
460.89964	2.85492
461.10233	2.75525
461.30501	2.56932
461.50768	2.76236
461.71033	2.58982
461.91297	2.77557
462.1156	2.45111
462.31822	2.5042
462.52082	2.94148
462.72342	3.37303
462.926	2.6565
463.12856	2.83689
463.33112	3.38133
463.53366	2.57474
463.73619	2.58656
463.93871	2.69835
464.14121	2.55269
464.34371	2.80165
464.54619	3.02718
464.74865	2.44386
464.95111	2.48912
465.15355	2.86575
465.35598	2.56584
465.5584	2.94188
465.76081	2.6185
465.9632	2.63997
466.16558	2.62064
466.36795	2.92251
466.57031	2.34893
466.77265	2.72272
466.97499	2.94424
467.1773	2.66302
467.37961	2.64723
467.58191	2.42938
467.78419	2.6754
467.98646	-0
468.18871	2.63472
468.39096	3.0236
468.59319	2.55652
468.79541	2.31493
468.99762	2.53268
469.19981	2.70015
469.402	2.78629
469.60417	2.82736
469.80632	2.54687
470.00847	2.38998
470.2106	3.38631
470.41272	2.70841
470.61483	2.47395
470.81692	3.01555
471.01901	2.29165
471.22108	2.38388
471.42313	2.52741
471.62518	2.38204
471.82721	2.96251
472.02923	-0
472.23124	2.61538
472.43323	2.84635
472.63522	2.52556
472.83719	-0
473.03915	2.67918
473.24109	2.64932
473.44302	3.39347
473.64494	2.62456
473.84685	2.64743
474.04875	2.51006
474.25063	2.44299
474.4525	2.88646
474.65436	2.69393
474.8562	2.81483
475.05804	2.87567
475.25986	2.42541
475.46166	2.89066
475.66346	2.92968
475.86524	2.61997
476.06701	2.68781
476.26877	3.20587
476.47051	2.65081
476.67225	2.53719
476.87397	2.64104
477.07567	-0
477.27737	2.50652
477.47905	2.73798
477.68072	2.75659
477.88238	2.58948
478.08402	2.68866
478.28565	2.49841
478.48727	2.62514
478.68888	2.40377
478.89048	2.60143
479.09206	2.72868
479.29363	2.48669
479.49518	2.79425
479.69673	2.8186
479.89826	2.92002
480.09978	3.07616
480.30128	2.51228
480.50278	3.1264
480.70426	2.69952
480.90573	2.71164
481.10718	2.69959
481.30863	2.54116
481.51006	2.7161
481.71147	3.00436
481.91288	2.57407
482.11427	2.82865
482.31565	2.60676
482.51702	2.50522
482.71838	2.67235
482.91972	2.56191
483.12105	3.65891
483.32237	2.55851
483.52367	2.98128
483.72496	2.69445
483.92624	2.62101
484.12751	2.59161
484.32876	2.51602
484.53	2.48241
484.73123	2.62261
484.93245	2.55994
485.13365	2.63187
485.33484	2.37699
485.53602	2.64115
485.73719	2.55752
485.93834	2.81375
486.13948	-0
486.34061	2.79407
486.54172	2.6674
486.74282	2.76427
486.94391	2.74482
487.14499	2.49592
487.34605	2.58099
487.54711	2.63339
487.74814	2.49847
487.94917	2.47284
488.15018	2.55814
488.35118	2.90715
488.55217	2.61408
488.75315	2.83241
488.95411	2.45257
489.15506	2.77079
489.356	2.67828
489.55692	2.69141
489.75783	2.53251
489.95873	2.48483
490.15962	2.5388
490.36049	2.75025
490.56136	2.89131
490.7622	2.45106
490.96304	2.6099
491.16386	2.87326
491.36467	2.54797
491.56547	2.91594
491.76625	2.56769
491.96703	2.85206
492.16779	2.56709
492.36853	2.46719
492.56927	2.87629
492.76999	2.47597
492.9707	2.46724
493.17139	2.62815
493.37207	2.63082
493.57274	2.43402
493.7734	2.71984
493.97405	2.63214
494.17468	2.41358
494.3753	2.48881
494.5759	2.44638
494.7765	2.60174
494.97708	2.36789
495.17764	2.61833
495.3782	2.49819
495.57874	2.34894
495.77927	2.51406
495.97979	2.54357
496.18029	2.64633
496.38078	2.67574
496.58126	2.53603
496.78173	2.63865
496.98218	2.41682
497.18262	2.43883
497.38305	2.49401
497.58346	2.4834
497.78386	2.45315
497.98425	2.3162
498.18463	2.5615
498.38499	2.4883
498.58534	2.23742
498.78568	2.43889
498.98601	2.46139
499.18632	2.38252
499.38662	2.44116
499.5869	2.41394
499.78718	2.38025
499.98744	2.47006
500.18769	2.37712
500.38792	2.48065
500.58814	2.48287
500.78835	2.23319
500.98855	2.23625
501.18873	2.39028
501.3889	2.43576
501.58906	2.3617
501.78921	2.38745
501.98934	2.45277
502.18946	2.54951
502.38956	2.4469
502.58966	2.38859
502.78974	2.30468
502.98981	2.37024
503.18986	2.41251
503.3899	2.43156
503.58993	2.35074
503.78995	2.49473
503.98995	2.38638
504.18994	2.29486
504.38992	2.46553
504.58989	2.3023
504.78984	2.22504
504.98978	2.34133
505.1897	2.28561
505.38962	2.41032
505.58952	2.27432
505.78941	2.16803
505.98928	2.27094
506.18914	2.25957
506.38899	2.23919
506.58883	2.24128
506.78865	2.28215
506.98846	2.29797
507.18826	2.24846
507.38804	2.22791
507.58781	2.29012
507.78757	2.3073
507.98732	2.18957
508.18705	2.37855
508.38677	2.25131
508.58648	2.21345
508.78617	2.27873
508.98585	2.29292
509.18552	2.20818
509.38517	2.23116
509.58481	2.25408
509.78444	2.27654
509.98406	2.21368
510.18366	2.29526
510.38325	2.20755
510.58283	2.16329
510.78239	2.14595
510.98195	2.18255
511.18148	2.25344
511.38101	2.20388
511.58052	2.25438
511.78002	2.22287
511.97951	2.21646
512.17898	2.22806
512.37844	2.19966
512.57789	2.17283
512.77732	2.12149
512.97674	2.20379
513.17615	2.09434
513.37555	2.16517
513.57493	2.14863
513.7743	2.19905
513.97365	2.09852
514.173	2.15007
514.37233	2.10259
514.57165	2.12337
514.77095	2.14208
514.97024	2.11448
515.16952	2.11253
515.36879	2.11716
515.56804	2.0797
515.76728	2.03485
515.9665	2.13171
516.16572	2.11276
516.36492	2.06884
516.5641	2.1022
516.76328	2.02747
516.96244	2.05885
517.16159	2.08757
517.36072	2.04524
517.55984	2.11262
517.75895	2.14361
517.95805	2.03684
518.15713	2.0068
518.3562	2.00486
518.55526	1.98023
518.7543	1.99583
518.95333	2.0049
519.15235	2.01768
519.35135	2.05179
519.55034	1.99591
519.74932	2.0081
519.94829	1.99216
520.14724	2.00214
520.34618	1.9586
520.5451	1.99148
520.74402	1.96354
520.94292	2.00487
521.1418	1.94925
521.34068	1.96838
521.53954	1.97048
521.73838	1.97367
521.93722	1.96118
522.13604	2.01038
522.33485	1.96435
522.53364	1.94162
522.73242	1.96209
522.93119	1.92584
523.12995	1.92535
523.32869	1.90587
523.52742	1.93894
523.72613	1.96124
523.92484	1.90813
524.12353	1.9153
524.3222	1.9488
524.52087	1.89329
524.71952	1.92549
524.91815	1.95432
525.11678	1.89003
525.31539	1.9061
525.51399	1.89509
525.71257	1.87147
525.91114	1.83459
526.1097	1.87559
526.30825	1.83376
526.50678	1.89107
526.7053	1.87676
526.9038	1.84032
527.1023	1.86906
527.30078	1.8687
527.49924	1.85804
527.69769	1.86193
527.89613	1.88237
528.09456	1.84337
528.29297	1.87873
528.49137	1.83723
528.68976	1.85048
528.88814	1.84868
529.0865	1.8319
529.28484	1.79347
529.48318	1.79968
529.6815	1.82641
529.87981	1.80123
530.0781	1.79049
530.27638	1.78437
530.47465	1.8025
530.67291	1.81404
530.87115	1.76792
531.06938	1.79369
531.26759	1.77701
531.46579	1.76795
531.66398	1.79152
531.86216	1.77993
532.06032	1.80339
532.25847	1.76897
532.45661	1.77135
532.65473	1.76871
532.85284	1.7492
533.05094	1.74701
533.24902	1.75332
533.44709	1.75286
533.64514	1.74138
533.84319	1.72124
534.04122	1.73633
534.23923	1.74391
534.43724	1.73234
534.63523	1.72262
534.83321	1.75111
535.03117	1.71051
535.22912	1.74347
535.42706	1.71558
535.62498	1.73149
535.82289	1.70232
536.02079	1.70736
536.21867	1.68214
536.41654	1.67947
536.6144	1.68405
536.81225	1.69033
537.01008	1.6883
537.20789	1.66395
537.4057	1.65905
537.60349	1.67398
537.80127	1.66481
537.99903	1.65286
538.19678	1.64126
538.39452	1.66594
538.59224	1.643
538.78995	1.64408
538.98765	1.65406
539.18534	1.65448
539.38301	1.63557
539.58067	1.63351
539.77831	1.64368
539.97594	1.62158
540.17356	1.61945
540.37116	1.63043
540.56876	1.62645
540.76633	1.60716
540.9639	1.62383
541.16145	1.60247
541.35899	1.59385
541.55651	1.59172
541.75402	1.57827
541.95152	1.58797
542.149	1.5922
542.34647	1.57798
542.54393	1.58809
542.74138	1.58011
542.93881	1.57982
543.13623	1.57018
543.33363	1.56646
543.53102	1.5844
543.7284	1.56184
543.92576	1.55686
544.12311	1.53534
544.32045	1.56694
544.51777	1.55485
544.71508	1.5549
544.91238	1.54527
545.10966	1.54236
545.30693	1.5442
545.50419	1.53519
545.70143	1.54002
545.89866	1.52472
546.09588	1.52386
546.29308	1.53123
546.49027	1.52961
546.68745	1.51859
546.88461	1.52697
547.08176	1.51745
547.2789	1.51761
547.47602	1.51505
547.67313	1.50212
547.87023	1.50232
548.06731	1.50137
548.26438	1.48884
548.46143	1.49426
548.65848	1.49428
548.8555	1.47199
549.05252	1.48254
549.24952	1.48345
549.44651	1.48611
549.64348	1.48028
549.84045	1.49003
550.03739	1.47586
550.23433	1.47285
550.43125	1.48408
550.62816	1.463
550.82505	1.47274
551.02193	1.47214
551.2188	1.46499
551.41565	1.45758
551.61249	1.44988
551.80932	1.44304
552.00613	1.44767
552.20293	1.43901
552.39972	1.43849
552.59649	1.4362
552.79325	1.42629
552.99	1.42561
553.18673	1.43887
553.38345	1.4276
553.58015	1.42696
553.77684	1.42836
553.97352	1.42172
554.17019	1.41576
554.36684	1.41098
554.56348	1.40037
554.7601	1.40571
554.95671	1.40279
555.15331	1.39075
555.34989	1.39373
555.54646	1.40621
555.74302	1.38649
555.93956	1.39343
556.13609	1.38154
556.33261	1.3893
556.52911	1.37648
556.7256	1.37576
556.92207	1.38929
557.11854	1.3767
557.31498	1.3831
557.51142	1.36944
557.70784	1.35356
557.90425	1.36162
558.10064	1.3691
558.29702	1.36396
558.49339	1.35475
558.68974	1.35644
558.88608	1.35725
559.08241	1.35866
559.27872	1.3328
559.47502	1.34678
559.6713	1.34249
559.86758	1.34253
560.06383	1.33237
560.26008	1.33945
560.45631	1.3335
560.65253	1.33789
560.84873	1.33762
561.04492	1.33257
561.2411	1.32687
561.43726	1.32954
561.63341	1.32758
561.82955	1.32028
562.02567	1.31898
562.22178	1.30998
562.41787	1.32545
562.61395	1.30663
562.81002	1.29968
563.00608	1.30734
563.20212	1.2972
563.39814	1.30183
563.59416	1.29791
563.79016	1.29121
563.98614	1.29486
564.18211	1.29369
564.37807	1.2911
564.57402	1.29159
564.76995	1.28461
564.96587	1.27605
565.16177	1.28054
565.35766	1.2707
565.55354	1.27684
565.7494	1.26435
565.94525	1.27395
566.14109	1.26627
566.33691	1.26358
566.53272	1.26777
566.72851	1.26988
566.92429	1.26376
567.12006	1.26123
567.31581	1.25733
567.51155	1.25128
567.70728	1.24617
567.90299	1.24861
568.09869	1.24015
568.29438	1.24254
568.49005	1.24439
568.68571	1.24251
568.88135	1.23755
569.07698	1.24308
569.2726	1.23286
569.4682	1.23328
569.66379	1.22374
569.85937	1.22676
570.05493	1.23333
570.25048	1.22356
570.44601	1.22569
570.64153	1.22345
570.83704	1.22317
571.03253	1.22074
571.22801	1.21581
571.42348	1.20756
571.61893	1.21584
571.81437	1.2082
572.0098	1.20388
572.20521	1.20851
572.4006	1.20698
572.59599	1.20576
572.79136	1.20348
572.98671	1.20259
573.18206	1.19837
573.37738	1.20228
573.5727	1.19387
573.768	1.19292
573.96329	1.19846
574.15856	1.18965
574.35382	1.18797
574.54907	1.18844
574.7443	1.18186
574.93952	1.18095
575.13472	1.1787
575.32991	1.17567
575.52509	1.17101
575.72025	1.17642
575.9154	1.17565
576.11054	1.16688
576.30566	1.16408
576.50077	1.16168
576.69586	1.16449
576.89094	1.16868
577.08601	1.1571
577.28106	1.15987
577.4761	1.15424
577.67113	1.14994
577.86614	1.15517
578.06114	1.14868
578.25612	1.14721
578.45109	1.14895
578.64605	1.14602
578.84099	1.1522
579.03592	1.14236
579.23083	1.13711
579.42573	1.1484
579.62062	1.13809
579.81549	1.1409
580.01035	1.13245
580.2052	1.13726
580.40003	1.13548
580.59485	1.13369
580.78965	1.12783
580.98444	1.12266
581.17922	1.12494
581.37398	1.12509
581.56873	1.12413
581.76346	1.11757
581.95818	1.12084
582.15289	1.11627
582.34758	1.11282
582.54226	1.11486
582.73693	1.11192
582.93158	1.1082
583.12622	1.11053
583.32084	1.1075
583.51545	1.10447
583.71005	1.10442
583.90463	1.10594
584.0992	1.10317
584.29375	1.10015
584.48829	1.10005
584.68282	1.09842
584.87733	1.09466
585.07183	1.0944
585.26631	1.09245
585.46079	1.09202
585.65524	1.09168
585.84969	1.08579
586.04411	1.08853
586.23853	1.08411
586.43293	1.08494
586.62732	1.08208
586.82169	1.08141
587.01605	1.07699
587.2104	1.08192
587.40473	1.07549
587.59905	1.07475
587.79335	1.07394
587.98764	1.07094
588.18192	1.07401
588.37618	1.07075
588.57043	1.0662
588.76466	1.06971
588.95888	1.06346
589.15309	1.06286
589.34728	1.06049
589.54146	1.06303
589.73562	1.06209
589.92977	1.05913
590.12391	1.05654
590.31803	1.05472
590.51214	1.05357
590.70623	1.04789
590.90031	1.04446
591.09438	1.04838
591.28843	1.04351
591.48247	1.04568
591.67649	1.04195
591.8705	1.04133
592.0645	1.04801
592.25848	1.04442
592.45245	1.04249
592.64641	1.04218
592.84035	1.03927
593.03427	1.0398
593.22818	1.03667
593.42208	1.0302
593.61597	1.02874
593.80984	1.03091
594.00369	1.02614
594.19754	1.02786
594.39136	1.02406
594.58518	1.02454
594.77898	1.02137
594.97277	1.02298
595.16654	1.0222
595.3603	1.01719
595.55404	1.01836
595.74777	1.01469
595.94149	1.01529
596.13519	1.01586
596.32888	1.01316
596.52255	1.01638
596.71621	1.01502
596.90985	1.01229
597.10349	1.01114
597.2971	1.00264
597.49071	1.0042
597.6843	1.00384
597.87787	1.00288
598.07143	0.99998
598.26498	0.99983
598.45851	1.00097
598.65203	0.99709
598.84554	1.00081
599.03903	0.99655
599.23251	0.99932
599.42597	0.99311
599.61942	0.9945
599.81285	0.99312
600.00627	0.98801
600.19968	0.99019
600.39307	0.9881
600.58645	0.98895
600.77981	0.98716
600.97316	0.98598
601.1665	0.98506
601.35982	0.97989
601.55313	0.98322
601.74642	0.98036
601.9397	0.98131
602.13297	0.97805
602.32622	0.97659
602.51946	0.9792
602.71268	0.97358
602.90589	0.97714
603.09908	0.97079
603.29226	0.96939
603.48543	0.96683
603.67858	0.96787
603.87172	0.9657
604.06484	0.96635
604.25795	0.96549
604.45105	0.96416
604.64413	0.96311
604.8372	0.96058
605.03025	0.96154
605.22329	0.95804
605.41631	0.9589
605.60932	0.95549
605.80232	0.95263
605.9953	0.95175
606.18827	0.95038
606.38122	0.94865
606.57416	0.94645
606.76709	0.94873
606.96	0.94723
607.1529	0.94767
607.34578	0.9436
607.53865	0.94407
607.7315	0.94198
607.92434	0.94312
608.11717	0.94369
608.30998	0.94043
608.50278	0.94058
608.69556	0.93793
608.88833	0.9383
609.08109	0.93452
609.27383	0.93706
609.46656	0.93847
609.65927	0.93533
609.85197	0.93373
610.04465	0.93541
610.23732	0.93084
610.42998	0.9291
610.62262	0.92746
610.81525	0.9258
611.00786	0.92685
611.20046	0.92471
611.39304	0.92089
611.58561	0.92191
611.77817	0.9221
611.97071	0.91699
612.16324	0.9187
612.35575	0.91778
612.54825	0.9177
612.74073	0.91437
612.9332	0.91276
613.12566	0.91167
613.3181	0.91032
613.51053	0.91043
613.70294	0.90793
613.89534	0.90872
614.08772	0.90894
614.2801	0.90854
614.47245	0.90718
614.66479	0.90359
614.85712	0.90031
615.04943	0.89959
615.24173	0.90177
615.43402	0.8996
615.62629	0.89957
615.81854	0.89801
616.01079	0.90104
616.20301	0.89842
616.39523	0.89523
616.58743	0.89622
616.77961	0.89502
616.97178	0.89427
617.16394	0.8943
617.35608	0.89393
617.5482	0.88806
617.74032	0.88903
617.93242	0.88958
618.1245	0.88616
618.31657	0.88975
618.50863	0.88462
618.70067	0.88286
618.89269	0.88401
619.08471	0.88409
619.27671	0.88215
619.46869	0.87883
619.66066	0.8796
619.85261	0.88087
620.04455	0.87759
620.23648	0.87726
620.42839	0.877
620.62029	0.87617
620.81217	0.87453
621.00404	0.87559
621.1959	0.87
621.38774	0.87135
621.57956	0.86863
621.77138	0.87231
621.96317	0.86858
622.15496	0.86826
622.34672	0.86493
622.53848	0.86701
622.73022	0.86571
622.92194	0.86462
623.11365	0.86162
623.30535	0.86069
623.49703	0.86169
623.6887	0.86134
623.88035	0.86015
624.07199	0.86068
624.26362	0.85901
624.45523	0.85406
624.64682	0.85642
624.8384	0.85403
625.02997	0.85531
625.22152	0.85541
625.41306	0.85363
625.60458	0.8509
625.79609	0.85167
625.98759	0.84716
626.17907	0.84891
626.37053	0.85056
626.56198	0.8475
626.75342	0.84772
626.94484	0.84787
627.13625	0.84513
627.32764	0.84293
627.51902	0.84048
627.71039	0.84245
627.90174	0.84046
628.09307	0.83869
628.28439	0.83825
628.4757	0.83816
628.66699	0.83672
628.85827	0.83483
629.04953	0.83333
629.24078	0.83412
629.43202	0.83167
629.62324	0.83342
629.81444	0.82888
630.00563	0.82987
630.19681	0.83059
630.38797	0.83017
630.57912	0.83054
630.77025	0.82846
630.96137	0.82891
631.15247	0.82807
631.34356	0.826
631.53464	0.82655
631.7257	0.82241
631.91674	0.82285
632.10778	0.82249
632.29879	0.82148
632.48979	0.82201
632.68078	0.81989
632.87176	0.81725
633.06271	0.81851
633.25366	0.81484
633.44459	0.81639
633.6355	0.81759
633.8264	0.8134
634.01729	0.81358
634.20816	0.81204
634.39902	0.8107
634.58986	0.81114
634.78069	0.81056
634.9715	0.80905
635.1623	0.80701
635.35309	0.80832
635.54385	0.80685
635.73461	0.80196
635.92535	0.80458
636.11608	0.80715
636.30679	0.80202
636.49748	0.80194
636.68817	0.8011
636.87883	0.7986
637.06949	0.79954
637.26013	0.80072
637.45075	0.79788
637.64136	0.79627
637.83195	0.79808
638.02253	0.7966
638.2131	0.79526
638.40365	0.79383
638.59419	0.79347
638.78471	0.78903
638.97522	0.79343
639.16571	0.78769
639.35619	0.78874
639.54665	0.78842
639.7371	0.78735
639.92753	0.78824
640.11795	0.78864
640.30836	0.78813
640.49875	0.7866
640.68912	0.78547
640.87949	0.78238
641.06983	0.78225
641.26016	0.78176
641.45048	0.78059
641.64078	0.77947
641.83107	0.77828
642.02134	0.77878
642.2116	0.77928
642.40185	0.77791
642.59208	0.77645
642.78229	0.7741
642.97249	0.77572
643.16268	0.77369
643.35285	0.775
643.543	0.77339
643.73314	0.77391
643.92327	0.77211
644.11338	0.76979
644.30348	0.76701
644.49356	0.76876
644.68363	0.76771
644.87368	0.76773
645.06372	0.76518
645.25375	0.76417
645.44376	0.7656
645.63375	0.7652
645.82373	0.76364
646.0137	0.76169
646.20365	0.75897
646.39358	0.76208
646.5835	0.75836
646.77341	0.76068
646.9633	0.76031
647.15318	0.7563
647.34304	0.75395
647.53289	0.75708
647.72272	0.75547
647.91254	0.75738
648.10234	0.7541
648.29213	0.75365
648.4819	0.75279
648.67166	0.75263
648.86141	0.75061
649.05114	0.75074
649.24085	0.74822
649.43055	0.74847
649.62024	0.74726
649.80991	0.74505
649.99957	0.74329
650.18921	0.74575
650.37883	0.7443
650.56844	0.74632
650.75804	0.74063
650.94762	0.74452
651.13719	0.74332
651.32674	0.74156
651.51628	0.74287
651.70581	0.74225
651.89531	0.74021
652.08481	0.73982
652.27429	0.73815
652.46375	0.73617
652.6532	0.73464
652.84263	0.7365
653.03205	0.73826
653.22146	0.73587
653.41085	0.73409
653.60022	0.7318
653.78958	0.73099
653.97893	0.73084
654.16826	0.73123
654.35758	0.72941
654.54688	0.72959
654.73617	0.73016
654.92544	0.72613
655.11469	0.72819
655.30394	0.72834
655.49316	0.72721
655.68238	0.72661
655.87157	0.7238
656.06076	0.72298
656.24992	0.72488
656.43908	0.72353
656.62822	0.72465
656.81734	0.72533
657.00645	0.72258
657.19554	0.72297
657.38462	0.7194
657.57368	0.71945
657.76273	0.72033
657.95177	0.71789
658.14079	0.71511
658.32979	0.71488
658.51878	0.71459
658.70776	0.71289
658.89672	0.71343
659.08566	0.71081
659.27459	0.71263
659.46351	0.71316
659.65241	0.71043
659.84129	0.7108
660.03016	0.70884
660.21902	0.71103
660.40786	0.70788
660.59669	0.70909
660.7855	0.70579
660.9743	0.70589
661.16308	0.70457
661.35184	0.70562
661.5406	0.70302
661.72933	0.7019
661.91805	0.70082
662.10676	0.70256
662.29545	0.69934
662.48413	0.70229
662.67279	0.70102
662.86144	0.69989
663.05007	0.69743
663.23869	0.69838
663.42729	0.6983
663.61588	0.69562
663.80445	0.69694
663.99301	0.69599
664.18155	0.69602
664.37008	0.69512
664.55859	0.69306
664.74709	0.69154
664.93557	0.6902
665.12404	0.68976
665.3125	0.69082
665.50093	0.6893
665.68936	0.69022
665.87777	0.69045
666.06616	0.68948
666.25454	0.6891
666.4429	0.68572
666.63125	0.68614
666.81958	0.68553
667.0079	0.68518
667.19621	0.68205
667.38449	0.68266
667.57277	0.6825
667.76103	0.68343
667.94927	0.67981
668.1375	0.67976
668.32571	0.68061
668.51391	0.68007
668.70209	0.67831
668.89026	0.67821
669.07842	0.67963
669.26656	0.67846
669.45468	0.67611
669.64279	0.67692
669.83088	0.67518
670.01896	0.67517
670.20702	0.67371
670.39507	0.67462
670.58311	0.67409
670.77112	0.67131
670.95913	0.67254
671.14712	0.6723
671.33509	0.67012
671.52305	0.67102
671.71099	0.66813
671.89892	0.6697
672.08683	0.66911
672.27473	0.66808
672.46262	0.66735
672.65048	0.66673
672.83834	0.66659
673.02617	0.66497
673.214	0.66692
673.40181	0.66296
673.5896	0.6625
673.77738	0.66311
673.96514	0.66344
674.15289	0.66203
674.34062	0.66006
674.52834	0.65965
674.71604	0.6609
674.90373	0.65934
675.0914	0.66078
675.27906	0.65818
675.4667	0.65588
675.65433	0.65684
675.84194	0.65681
676.02954	0.65503
676.21712	0.65639
676.40468	0.65561
676.59224	0.65457
676.77977	0.65368
676.96729	0.6532
677.1548	0.65254
677.34229	0.65324
677.52977	0.65066
677.71723	0.65021
677.90467	0.652
678.09211	0.64904
678.27952	0.64945
678.46692	0.64829
678.65431	0.64834
678.84168	0.64729
679.02903	0.64618
679.21637	0.64585
679.4037	0.64576
679.59101	0.64582
679.7783	0.64606
679.96558	0.64592
680.15285	0.6429
680.34009	0.64315
680.52733	0.6438
680.71455	0.64096
680.90175	0.64052
681.08894	0.64077
681.27611	0.64032
681.46327	0.63909
681.65041	0.63988
681.83754	0.638
682.02465	0.63761
682.21175	0.63887
682.39883	0.63729
682.5859	0.63658
682.77295	0.63655
682.95999	0.63619
683.14701	0.63544
683.33402	0.6349
683.52101	0.63503
683.70799	0.63514
683.89495	0.63204
684.08189	0.63181
684.26882	0.63183
684.45574	0.6325
684.64264	0.6314
684.82952	0.63145
685.01639	0.63011
685.20325	0.62804
685.39009	0.62816
685.57691	0.62902
685.76372	0.62902
685.95051	0.62756
686.13729	0.62844
686.32405	0.62716
686.5108	0.62709
686.69753	0.62638
686.88425	0.62635
687.07095	0.62523
687.25764	0.62349
687.44431	0.62485
687.63097	0.62388
687.81761	0.62197
688.00424	0.62146
688.19085	0.62519
688.37744	0.6222
688.56402	0.62187
688.75059	0.61969
688.93714	0.61812
689.12367	0.61894
689.31019	0.62033
689.49669	0.61896
689.68318	0.61736
689.86966	0.61697
690.05611	0.61847
690.24256	0.61771
690.42898	0.618
690.6154	0.61623
690.80179	0.61497
690.98818	0.61659
691.17454	0.61445
691.36089	0.61456
691.54723	0.61356
691.73355	0.61232
691.91985	0.61192
692.10614	0.61207
692.29242	0.61199
692.47868	0.61197
692.66492	0.61023
692.85115	0.61077
693.03736	0.61024
693.22356	0.60906
693.40974	0.60718
693.59591	0.61012
693.78206	0.60804
693.9682	0.60959
694.15432	0.60582
694.34043	0.60795
694.52652	0.60511
694.71259	0.60504
694.89865	0.607
695.0847	0.60344
695.27073	0.60491
695.45674	0.60465
695.64274	0.60513
695.82872	0.60341
696.01469	0.60413
696.20064	0.60233
696.38658	0.60331
696.5725	0.60273
696.75841	0.6027
696.9443	0.60093
697.13017	0.60004
697.31603	0.60018
697.50188	0.6001
697.68771	0.59992
697.87352	0.59867
698.05932	0.5985
698.2451	0.59736
698.43087	0.59978
698.61662	0.59955
698.80236	0.5961
698.98808	0.59559
699.17379	0.59826
699.35948	0.59688
699.54516	0.59628
699.73082	0.59592
699.91646	0.59542
700.10209	0.5936
700.2877	0.5941
700.4733	0.59413
700.65888	0.5949
700.84445	0.59418
701.03	0.59169
701.21554	0.59191
701.40106	0.59217
701.58657	0.59352
701.77206	0.59165
701.95753	0.59159
702.14299	0.59091
702.32844	0.59009
702.51387	0.59001
702.69928	0.59076
702.88468	0.59022
703.07006	0.59062
703.25543	0.58791
703.44078	0.58891
703.62611	0.58618
703.81143	0.58577
703.99674	0.58811
704.18203	0.58598
704.3673	0.58621
704.55256	0.58823
704.7378	0.58753
704.92303	0.58524
705.10824	0.58597
705.29344	0.58551
705.47862	0.58541
705.66379	0.58421
705.84894	0.58465
706.03407	0.58495
706.21919	0.58402
706.4043	0.58383
706.58938	0.58269
706.77446	0.58278
706.95951	0.58323
707.14456	0.58251
707.32958	0.58041
707.51459	0.58096
707.69959	0.58108
707.88457	0.58093
708.06953	0.57921
708.25448	0.57825
708.43941	0.57982
708.62433	0.57727
708.80923	0.58058
708.99412	0.5782
709.17899	0.57803
709.36385	0.57862
709.54869	0.57627
709.73351	0.57662
709.91832	0.57562
710.10311	0.57672
710.28789	0.57611
710.47265	0.57442
710.6574	0.57563
710.84213	0.5755
711.02685	0.57597
711.21155	0.57436
711.39623	0.57475
711.5809	0.57468
711.76555	0.5742
711.95019	0.57568
712.13481	0.57355
712.31942	0.57274
712.50401	0.57504
712.68859	0.57189
712.87314	0.57093
713.05769	0.57406
713.24222	0.57343
713.42673	0.57429
713.61123	0.56973
713.79571	0.57024
713.98018	0.57046
714.16463	0.57066
714.34906	0.56913
714.53348	0.56895
714.71788	0.56998
714.90227	0.56978
715.08665	0.56778
715.271	0.56848
715.45534	0.56798
715.63967	0.56762
715.82398	0.56749
716.00827	0.56724
716.19255	0.56846
716.37682	0.5688
716.56106	0.56924
716.7453	0.56689
716.92951	0.56787
717.11371	0.56559
717.2979	0.56667
717.48207	0.56589
717.66622	0.56651
717.85036	0.56577
718.03448	0.56531
718.21859	0.56483
718.40268	0.56471
718.58675	0.56611
718.77081	0.565
718.95486	0.56544
719.13889	0.56496
719.3229	0.56426
719.5069	0.56236
719.69088	0.56396
719.87484	0.56443
720.05879	0.56297
720.24273	0.56374
720.42665	0.56141
720.61055	0.56396
720.79444	0.56511
720.97831	0.56093
721.16216	0.56346
721.346	0.56259
721.52983	0.56128
721.71364	0.56225
721.89743	0.55868
722.08121	0.56099
722.26497	0.56081
722.44872	0.55983
722.63245	0.56175
722.81616	0.55987
722.99986	0.562
723.18354	0.5601
723.36721	0.56047
723.55086	0.55891
723.7345	0.56051
723.91812	0.55956
724.10172	0.56086
724.28531	0.55883
724.46888	0.55825
724.65244	0.55969
724.83598	0.55775
725.01951	0.55734
725.20302	0.55908
725.38651	0.55988
725.56999	0.55823
725.75345	0.557
725.9369	0.55807
726.12033	0.55673
726.30374	0.55658
726.48714	0.55737
726.67053	0.55696
726.8539	0.55761
727.03725	0.55714
727.22059	0.55641
727.40391	0.55579
727.58721	0.55585
727.7705	0.55582
727.95377	0.55516
728.13703	0.55548
728.32027	0.5553
728.5035	0.55374
728.68671	0.55649
728.8699	0.55532
729.05308	0.55467
729.23624	0.55518
729.41939	0.55295
729.60252	0.55436
729.78564	0.55344
729.96874	0.55345
730.15182	0.55396
730.33489	0.55388
730.51794	0.55369
730.70098	0.5523
730.884	0.55415
731.067	0.5524
731.24999	0.55184
731.43296	0.55318
731.61592	0.55179
731.79886	0.553
731.98179	0.5523
732.1647	0.55115
732.34759	0.55013
732.53047	0.5522
732.71333	0.55204
732.89618	0.55161
733.07901	0.55002
733.26182	0.55066
733.44462	0.55052
733.6274	0.55154
733.81017	0.5515
733.99292	0.55004
734.17565	0.55045
734.35837	0.5508
734.54108	0.54978
734.72376	0.55112
734.90644	0.54879
735.08909	0.5496
735.27173	0.54943
735.45435	0.54962
735.63696	0.54912
735.81955	0.5499
736.00213	0.54902
736.18469	0.54865
736.36724	0.54864
736.54976	0.54853
736.73228	0.54801
736.91477	0.55043
737.09725	0.54685
737.27972	0.54941
737.46217	0.54903
737.6446	0.54649
737.82702	0.548
738.00942	0.54904
738.1918	0.54813
738.37417	0.5469
738.55653	0.54534
738.73886	0.54409
738.92118	0.54661
739.10349	0.54648
739.28578	0.54547
739.46805	0.54618
739.65031	0.54513
739.83255	0.5459
740.01478	0.54399
740.19699	0.54396
740.37918	0.54557
740.56136	0.54291
740.74352	0.54499
740.92567	0.54306
741.1078	0.54369
741.28991	0.5428
741.47201	0.54436
741.65409	0.54235
741.83616	0.54271
742.01821	0.54204
742.20024	0.54268
742.38226	0.54034
742.56426	0.53975
742.74625	0.54175
742.92822	0.54095
743.11017	0.54104
743.29211	0.53792
743.47403	0.53899
743.65594	0.53893
743.83783	0.53677
744.0197	0.53846
744.20156	0.53642
744.3834	0.5364
744.56523	0.53634
744.74704	0.53471
744.92883	0.53434
745.11061	0.53395
745.29237	0.53448
745.47412	0.53247
745.65585	0.53195
745.83756	0.53068
746.01926	0.5325
746.20094	0.52981
746.38261	0.53161
746.56426	0.5297
746.74589	0.5301
746.92751	0.52662
747.10911	0.52719
747.2907	0.52551
747.47227	0.52439
747.65382	0.52618
747.83536	0.52276
748.01688	0.52374
748.19838	0.52225
748.37987	0.52199
748.56135	0.52124
748.7428	0.52218
748.92424	0.51884
749.10567	0.51681
749.28708	0.51777
749.46847	0.5148
749.64985	0.515
749.83121	0.51589
750.01255	0.51402
750.19388	0.51334
750.37519	0.512
750.55649	0.5087
750.73777	0.50998
750.91903	0.50931
751.10028	0.50748
751.28151	0.50577
751.46273	0.50525
751.64393	0.50196
751.82511	0.50165
752.00628	0.49962
752.18743	0.50007
752.36856	0.49745
752.54968	0.49524
752.73079	0.49486
752.91187	0.49342
753.09294	0.4916
753.274	0.49024
753.45504	0.4889
753.63606	0.48774
753.81706	0.48431
753.99805	0.48385
754.17903	0.48181
754.35998	0.48077
754.54093	0.47983
754.72185	0.47645
754.90276	0.47615
755.08365	0.4736
755.26453	0.47209
755.44539	0.4711
755.62623	0.46776
755.80706	0.46611
755.98787	0.46373
756.16867	0.4613
756.34945	0.45896
756.53021	0.45777
756.71096	0.45338
756.89169	0.45092
757.07241	0.44895
757.25311	0.4474
757.43379	0.44538
757.61445	0.44366
757.79511	0.44166
757.97574	0.43904
758.15636	0.43741
758.33696	0.43374
758.51754	0.43188
758.69811	0.42879
758.87867	0.42822
759.0592	0.42529
759.23972	0.42214
759.42023	0.41893
759.60072	0.4167
759.78119	0.41406
759.96164	0.41028
760.14208	0.40897
760.32251	0.4063
760.50291	0.40287
760.6833	0.40076
760.86368	0.39799
761.04404	0.39607
761.22438	0.39364
761.4047	0.38938
761.58501	0.38709
761.76531	0.38404
761.94558	0.38136
762.12584	0.37813
762.30609	0.37629
762.48632	0.37259
762.66653	0.36939
762.84672	0.36714
763.0269	0.36258
763.20707	0.36166
763.38721	0.35893
763.56734	0.35578
763.74746	0.3516
763.92756	0.34905
764.10764	0.34628
764.2877	0.34355
764.46775	0.34107
764.64778	0.33711
764.8278	0.3351
765.0078	0.33129
765.18779	0.3279
765.36775	0.32548
765.5477	0.32418
765.72764	0.32135
765.90756	0.3186
766.08746	0.31641
766.26735	0.31279
766.44722	0.31011
766.62707	0.30605
766.80691	0.30365
766.98673	0.30164
767.16653	0.29756
767.34632	0.29582
767.52609	0.2934
767.70585	0.29031
767.88559	0.28719
768.06531	0.28513
768.24502	0.28269
768.42471	0.28105
768.60438	0.27776
768.78404	0.27565
768.96368	0.27281
769.1433	0.27121
769.32291	0.26787
769.5025	0.26486
769.68208	0.26373
769.86164	0.26065
770.04118	0.25829
770.22071	0.2563
770.40022	0.25461
770.57971	0.25235
770.75919	0.24947
770.93865	0.24755
771.11809	0.24512
771.29752	0.24166
771.47693	0.242
771.65633	0.23917
771.83571	0.23594
772.01507	0.23505
772.19442	0.23339
772.37375	0.23126
772.55306	0.22936
772.73236	0.22682
772.91164	0.22636
773.0909	0.22472
773.27015	0.2216
773.44938	0.22172
773.6286	0.22003
773.8078	0.2185
773.98698	0.21595
774.16614	0.21599
774.34529	0.21222
774.52443	0.21114
774.70354	0.21032
774.88264	0.20932
775.06173	0.20854
775.24079	0.20587
775.41984	0.20419
775.59888	0.20291
775.77789	0.20153
775.9569	0.20064
776.13588	0.19785
776.31485	0.19911
776.4938	0.1984
776.67274	0.19663
776.85166	0.19456
777.03056	0.19358
777.20944	0.19348
777.38831	0.19194
777.56717	0.19143
777.746	0.19051
777.92482	0.18872
778.10363	0.18889
778.28242	0.18644
778.46119	0.18643
778.63994	0.18492
778.81868	0.1842
778.9974	0.18366
779.1761	0.18255
779.35479	0.18215
779.53346	0.18143
779.71212	0.18059
779.89076	0.18089
780.06938	0.17941
780.24799	0.17878
780.42658	0.17785
780.60515	0.17613
780.78371	0.17664
780.96225	0.17604
781.14077	0.17671
781.31928	0.17482
781.49777	0.17409
781.67624	0.17421
781.8547	0.17406
782.03314	0.17389
782.21156	0.17289
782.38997	0.1715
782.56836	0.17354
782.74673	0.17185
782.92509	0.1701
783.10343	0.17099
783.28176	0.17067
783.46007	0.17144
783.63836	0.17115
783.81663	0.1699
783.99489	0.17021
784.17313	0.16973
784.35136	0.16974
784.52957	0.16905
784.70776	0.17055
784.88593	0.16904
785.06409	0.16938
785.24224	0.16816
785.42036	0.16952
785.59847	0.16878
785.77656	0.16899
785.95464	0.16833
786.1327	0.16813
786.31074	0.16813
786.48877	0.16728
786.66678	0.16856
786.84477	0.16863
787.02275	0.16766
787.20071	0.16818
787.37865	0.16823
787.55658	0.16794
787.73449	0.16889
787.91238	0.16928
788.09026	0.16746
788.26812	0.16748
788.44596	0.16902
788.62379	0.16871
788.8016	0.1684
788.9794	0.16797
789.15717	0.16871
789.33493	0.16857
789.51268	0.16896
789.6904	0.16903
789.86811	0.16973
790.04581	0.16973
790.22349	0.1687
790.40115	0.16974
790.57879	0.16882
790.75642	0.17092
790.93403	0.17037
791.11162	0.16978
791.2892	0.17005
791.46676	0.17052
791.6443	0.16991
791.82183	0.17161
791.99934	0.16992
792.17684	0.17204
792.35431	0.17055
792.53177	0.17079
792.70922	0.17147
792.88665	0.17211
793.06406	0.1717
793.24145	0.17086
793.41883	0.17092
793.59619	0.17146
793.77353	0.17204
793.95086	0.17226
794.12817	0.17273
794.30546	0.17345
794.48274	0.17386
794.66	0.17236
794.83724	0.17294
795.01447	0.17527
795.19168	0.17314
795.36887	0.17478
795.54605	0.17441
795.72321	0.17618
795.90035	0.17631
796.07748	0.17695
796.25459	0.17694
796.43168	0.1773
796.60876	0.17857
796.78582	0.17852
796.96286	0.17867
797.13989	0.18014
797.3169	0.17961
797.49389	0.18024
797.67086	0.1799
797.84782	0.17876
798.02477	0.17966
798.20169	0.1796
798.3786	0.1794
798.55549	0.17926
798.73237	0.18059
798.90923	0.18155
799.08607	0.18226
799.26289	0.18228
799.4397	0.18332
799.61649	0.18363
799.79327	0.18178
799.97002	0.1828
800.14676	0.18449
800.32349	0.18422
800.5002	0.18449
800.67689	0.18432
800.85356	0.18517
801.03022	0.18518
801.20686	0.18581
801.38348	0.18591
801.56009	0.18461
801.73668	0.18597
801.91325	0.18643
802.08981	0.18594
802.26635	0.18678
802.44287	0.1876
802.61937	0.1877
802.79586	0.18784
802.97233	0.18738
803.14879	0.1891
803.32523	0.18826
803.50165	0.18807
803.67805	0.18969
803.85444	0.18954
804.03081	0.18989
804.20717	0.19074
804.3835	0.19029
804.55983	0.19021
804.73613	0.19239
804.91242	0.19225
805.08869	0.19309
805.26494	0.1936
805.44117	0.19312
805.61739	0.19373
805.7936	0.1941
805.96978	0.19498
806.14595	0.19494
806.3221	0.19595
806.49824	0.19633
806.67436	0.19439
806.85046	0.19529
807.02654	0.19652
807.20261	0.19783
807.37866	0.19747
807.55469	0.19665
807.73071	0.19662
807.90671	0.19785
808.08269	0.19931
808.25866	0.19967
808.43461	0.19933
808.61054	0.20109
808.78645	0.1995
808.96235	0.20053
809.13823	0.20139
809.3141	0.1996
809.48995	0.19947
809.66578	0.20111
809.84159	0.20244
810.01739	0.20226
810.19317	0.20257
810.36893	0.20024
810.54468	0.20198
810.7204	0.20338
810.89612	0.20334
811.07181	0.20426
811.24749	0.20428
811.42315	0.20547
811.5988	0.2042
811.77442	0.20471
811.95003	0.20421
812.12563	0.20588
812.3012	0.20565
812.47676	0.206
812.65231	0.207
812.82783	0.20796
813.00334	0.20925
813.17883	0.20867
813.35431	0.20831
813.52976	0.20981
813.70521	0.21001
813.88063	0.20857
814.05604	0.21071
814.23143	0.21067
814.4068	0.21243
814.58215	0.21012
814.75749	0.21171
814.93281	0.21363
815.10812	0.21133
815.28341	0.21261
815.45868	0.21196
815.63393	0.21266
815.80917	0.2135
815.98439	0.21426
816.15959	0.21284
816.33478	0.21364
816.50995	0.21631
816.6851	0.21611
816.86023	0.21423
817.03535	0.21574
817.21045	0.21507
817.38553	0.21678
817.5606	0.216
817.73565	0.21665
817.91068	0.21771
818.0857	0.2166
818.2607	0.21894
818.43568	0.21724
818.61064	0.21654
818.78559	0.21898
818.96052	0.21844
819.13543	0.21776
819.31033	0.21922
819.48521	0.22147
819.66007	0.21996
819.83491	0.22068
820.00974	0.22247
820.18455	0.21999
820.35935	0.22127
820.53412	0.21974
820.70888	0.22198
820.88362	0.22203
821.05835	0.2215
821.23306	0.22233
821.40775	0.22379
821.58242	0.22286
821.75708	0.22335
821.93172	0.22436
822.10634	0.22533
822.28095	0.22539
822.45554	0.22765
822.63011	0.2241
822.80466	0.22698
822.9792	0.2249
823.15372	0.22595
823.32822	0.22571
823.50271	0.22672
823.67718	0.2273
823.85163	0.22726
824.02606	0.22795
824.20048	0.22896
824.37488	0.22753
824.54926	0.22893
824.72363	0.22977
824.89798	0.23057
825.07231	0.2297
825.24663	0.23125
825.42092	0.23256
825.5952	0.23256
825.76947	0.23197
825.94371	0.23183
826.11794	0.23249
826.29215	0.2327
826.46635	0.23149
826.64052	0.23267
826.81468	0.2318
826.98883	0.2333
827.16295	0.23394
827.33706	0.2334
827.51115	0.23476
827.68523	0.23468
827.85928	0.23267
828.03332	0.23478
828.20735	0.23527
828.38135	0.23645
828.55534	0.23371
828.72931	0.23802
828.90327	0.23662
829.0772	0.23664
829.25112	0.23655
829.42502	0.23696
829.59891	0.23608
829.77278	0.23871
829.94663	0.23876
830.12046	0.239
830.29428	0.23951
830.46808	0.23917
830.64186	0.24015
830.81562	0.24052
830.98937	0.2399
831.1631	0.24015
831.33681	0.23979
831.51051	0.24099
831.68419	0.24028
831.85785	0.24142
832.03149	0.2415
832.20512	0.24221
832.37873	0.24417
832.55232	0.24276
832.72589	0.2408
832.89945	0.24327
833.07299	0.24229
833.24652	0.24263
833.42002	0.24197
833.59351	0.24391
833.76698	0.24415
833.94044	0.24399
834.11387	0.24508
834.28729	0.24492
834.46069	0.2451
834.63408	0.24466
834.80745	0.24672
834.9808	0.24483
835.15413	0.24828
835.32745	0.24571
835.50075	0.24584
835.67403	0.24969
835.84729	0.24807
836.02054	0.24991
836.19377	0.24979
836.36698	0.24928
836.54017	0.2478
836.71335	0.24955
836.88651	0.25143
837.05965	0.25022
837.23278	0.25166
837.40589	0.25212
837.57898	0.25159
837.75205	0.25135
837.92511	0.2513
838.09815	0.25175
838.27117	0.25184
838.44417	0.25273
838.61716	0.25431
838.79013	0.25394
838.96308	0.25336
839.13602	0.25405
839.30893	0.25391
839.48183	0.25532
839.65472	0.25455
839.82758	0.2548
840.00043	0.25623
840.17326	0.25595
840.34607	0.25511
840.51887	0.25796
840.69165	0.25465
840.86441	0.25587
841.03715	0.25731
841.20988	0.2575
841.38259	0.25907
841.55528	0.25735
841.72795	0.25835
841.90061	0.25893
842.07325	0.2602
842.24587	0.25652
842.41848	0.25981
842.59107	0.25935
842.76364	0.25853
842.93619	0.25917
843.10872	0.26108
843.28124	0.26228
843.45374	0.26067
843.62623	0.26181
843.79869	0.25937
843.97114	0.25965
844.14357	0.26148
844.31598	0.26257
844.48838	0.26284
844.66076	0.26504
844.83312	0.2631
845.00546	0.26257
845.17779	0.26566
845.3501	0.26405
845.52239	0.2625
845.69466	0.26528
845.86692	0.26443
846.03916	0.26376
846.21138	0.26455
846.38358	0.26277
846.55577	0.26437
846.72794	0.26521
846.90009	0.26606
847.07223	0.26509
847.24434	0.26685
847.41644	0.2653
847.58852	0.2672
847.76059	0.26752
847.93263	0.26628
848.10466	0.26825
848.27668	0.26811
848.44867	0.26671
848.62065	0.26787
848.79261	0.26778
848.96455	0.26671
849.13647	0.26781
849.30838	0.27013
849.48027	0.26838
849.65214	0.26902
849.824	0.27097
849.99583	0.27009
850.16765	0.26965
850.33946	0.27266
850.51124	0.27178
850.68301	0.26998
850.85476	0.27201
851.02649	0.27244
851.1982	0.27122
851.3699	0.27177
851.54158	0.27325
851.71324	0.27457
851.88489	0.27288
852.05651	0.2714
852.22812	0.27358
852.39971	0.27549
852.57129	0.27376
852.74285	0.27356
852.91438	0.27507
853.08591	0.27482
853.25741	0.27449
853.4289	0.27389
853.60037	0.27531
853.77182	0.27363
853.94325	0.27537
854.11467	0.27359
854.28607	0.27512
854.45745	0.27437
854.62881	0.27581
854.80016	0.2759
854.97149	0.27505
855.1428	0.27694
855.31409	0.27599
855.48537	0.27706
855.65662	0.27788
855.82786	0.27838
855.99909	0.2783
856.17029	0.27897
856.34148	0.27913
856.51265	0.27938
856.6838	0.2782
856.85494	0.27981
857.02606	0.28036
857.19716	0.27813
857.36824	0.27817
857.5393	0.27996
857.71035	0.27995
857.88138	0.27971
858.05239	0.28092
858.22338	0.28463
858.39436	0.27975
858.56532	0.28248
858.73626	0.28266
858.90718	0.28223
859.07809	0.2807
859.24898	0.28459
859.41985	0.2819
859.5907	0.28434
859.76154	0.28379
859.93236	0.28312
860.10316	0.28357
860.27394	0.28646
860.4447	0.28138
860.61545	0.28263
860.78618	0.28448
860.95689	0.28311
861.12759	0.28582
861.29826	0.28491
861.46892	0.28197
861.63956	0.28458
861.81019	0.28395
861.98079	0.28738
862.15138	0.28866
862.32195	0.28698
862.4925	0.28301
862.66304	0.28224
862.83356	0.28447
863.00405	0.28551
863.17454	0.28645
863.345	0.28596
863.51545	0.28994
863.68588	0.28676
863.85629	0.28872
864.02668	0.28898
864.19706	0.28791
864.36742	0.28855
864.53776	0.28969
864.70808	0.29023
864.87838	0.28986
865.04867	0.28702
865.21894	0.28888
865.38919	0.28939
865.55943	0.2884
865.72964	0.29006
865.89984	0.29195
866.07002	0.29113
866.24018	0.29123
866.41033	0.28797
866.58046	0.29082
866.75057	0.29096
866.92066	0.29371
867.09073	0.29393
867.26079	0.29186
867.43083	0.29168
867.60085	0.29459
867.77085	0.29097
867.94084	0.29052
868.11081	0.29249
868.28076	0.29374
868.45069	0.29138
868.6206	0.29175
868.7905	0.29479
868.96038	0.29241
869.13024	0.29468
869.30008	0.29345
869.46991	0.29523
869.63972	0.29562
869.80951	0.29616
869.97928	0.295
870.14903	0.29583
870.31877	0.29531
870.48849	0.29797
870.65819	0.29392
870.82787	0.29493
870.99754	0.29692
871.16719	0.30057
871.33682	0.29701
871.50643	0.29379
871.67602	0.29459
871.8456	0.29682
872.01516	0.2975
872.1847	0.29831
872.35422	0.29689
872.52373	0.29601
872.69321	0.29655
872.86268	0.30098
873.03213	0.29601
873.20157	0.29655
873.37098	0.30093
873.54038	0.29811
873.70976	0.30154
873.87912	0.29991
874.04847	0.29636
874.21779	0.30062
874.3871	0.30032
874.55639	0.29845
874.72567	0.30025
874.89492	0.29941
875.06416	0.29953
875.23338	0.30173
875.40258	0.30339
875.57176	0.30006
875.74093	0.30217
875.91008	0.30144
876.07921	0.30493
876.24832	0.30068
876.41741	0.29972
876.58649	0.30422
876.75555	0.29912
876.92459	0.30175
877.09361	0.30109
877.26262	0.29883
877.4316	0.3037
877.60057	0.30347
877.76952	0.30182
877.93846	0.30205
878.10737	0.30076
878.27627	0.30308
878.44515	0.30559
878.61401	0.30659
878.78285	0.3061
878.95168	0.30422
879.12049	0.3102
879.28928	0.3035
879.45805	0.30467
879.6268	0.3066
879.79554	0.30923
879.96426	0.30461
880.13296	0.30682
880.30164	0.30895
880.4703	0.30679
880.63895	0.30425
880.80758	0.30635
880.97619	0.3076
881.14478	0.30582
881.31335	0.30788
881.48191	0.30705
881.65045	0.3074
881.81897	0.30738
881.98747	0.30788
882.15596	0.30893
882.32442	0.3101
882.49287	0.30968
882.6613	0.30468
882.82972	0.31204
882.99811	0.30676
883.16649	0.30781
883.33485	0.31076
883.50319	0.30509
883.67151	0.30702
883.83981	0.30951
884.0081	0.30967
884.17637	0.30883
884.34462	0.31107
884.51285	0.3098
884.68107	0.30939
884.84926	0.31107
885.01744	0.31045
885.1856	0.31157
885.35375	0.31221
885.52187	0.30802
885.68998	0.30859
885.85807	0.31378
886.02614	0.31078
886.19419	0.31414
886.36222	0.31334
886.53024	0.31164
886.69824	0.31201
886.86622	0.31192
887.03418	0.31111
887.20212	0.31107
887.37005	0.30806
887.53796	0.30966
887.70585	0.3151
887.87372	0.31131
888.04157	0.31378
888.20941	0.31207
888.37723	0.31142
888.54503	0.31774
888.71281	0.31495
888.88057	0.31316
889.04832	0.31569
889.21605	0.31076
889.38376	0.31531
